               r         Re(p_n)         Im(p_n)
      0.1000E+00      0.0000E+00      0.0000E+00
      0.1035E+00      0.1923E-22      0.1313E-34
      0.1070E+00      0.4116E-22      0.2810E-34
      0.1105E+00      0.7087E-22      0.4838E-34
      0.1141E+00      0.1162E-21      0.7934E-34
      0.1176E+00      0.1895E-21      0.1294E-33
      0.1211E+00      0.3100E-21      0.2116E-33
      0.1246E+00      0.5071E-21      0.3462E-33
      0.1281E+00      0.8261E-21      0.5639E-33
      0.1316E+00      0.1335E-20      0.9116E-33
      0.1352E+00      0.2138E-20      0.1459E-32
      0.1387E+00      0.3386E-20      0.2311E-32
      0.1422E+00      0.5301E-20      0.3619E-32
      0.1457E+00      0.8204E-20      0.5601E-32
      0.1492E+00      0.1255E-19      0.8570E-32
      0.1527E+00      0.1899E-19      0.1297E-31
      0.1562E+00      0.2842E-19      0.1940E-31
      0.1598E+00      0.4207E-19      0.2872E-31
      0.1633E+00      0.6161E-19      0.4206E-31
      0.1668E+00      0.8929E-19      0.6096E-31
      0.1703E+00      0.1281E-18      0.8744E-31
      0.1738E+00      0.1818E-18      0.1241E-30
      0.1773E+00      0.2555E-18      0.1744E-30
      0.1809E+00      0.3552E-18      0.2425E-30
      0.1844E+00      0.4885E-18      0.3335E-30
      0.1879E+00      0.6644E-18      0.4535E-30
      0.1914E+00      0.8929E-18      0.6096E-30
      0.1949E+00      0.1185E-17      0.8090E-30
      0.1984E+00      0.1551E-17      0.1059E-29
      0.2020E+00      0.2000E-17      0.1366E-29
      0.2055E+00      0.2535E-17      0.1731E-29
      0.2090E+00      0.3149E-17      0.2150E-29
      0.2125E+00      0.3817E-17      0.2606E-29
      0.2160E+00      0.4488E-17      0.3064E-29
      0.2195E+00      0.5063E-17      0.3457E-29
      0.2230E+00      0.5380E-17      0.3673E-29
      0.2266E+00      0.5177E-17      0.3534E-29
      0.2301E+00      0.4050E-17      0.2765E-29
      0.2336E+00      0.1396E-17      0.9528E-30
      0.2371E+00      0.3668E-17      0.2504E-29
      0.2406E+00      0.1241E-16      0.8471E-29
      0.2441E+00      0.2661E-16      0.1816E-28
      0.2477E+00      0.4873E-16      0.3327E-28
      0.2512E+00      0.8217E-16      0.5610E-28
      0.2547E+00      0.1315E-15      0.8975E-28
      0.2582E+00      0.2026E-15      0.1383E-27
      0.2617E+00      0.3036E-15      0.2073E-27
      0.2652E+00      0.4445E-15      0.3034E-27
      0.2688E+00      0.6381E-15      0.4356E-27
      0.2723E+00      0.9005E-15      0.6147E-27
      0.2758E+00      0.1251E-14      0.8540E-27
      0.2793E+00      0.1713E-14      0.1169E-26
      0.2828E+00      0.2313E-14      0.1579E-26
      0.2863E+00      0.3082E-14      0.2104E-26
      0.2898E+00      0.4053E-14      0.2767E-26
      0.2934E+00      0.5262E-14      0.3593E-26
      0.2969E+00      0.6744E-14      0.4604E-26
      0.3004E+00      0.8529E-14      0.5822E-26
      0.3039E+00      0.1064E-13      0.7265E-26
      0.3074E+00      0.1310E-13      0.8940E-26
      0.3109E+00      0.1588E-13      0.1084E-25
      0.3145E+00      0.1896E-13      0.1294E-25
      0.3180E+00      0.2225E-13      0.1519E-25
      0.3215E+00      0.2562E-13      0.1749E-25
      0.3250E+00      0.2883E-13      0.1968E-25
      0.3285E+00      0.3156E-13      0.2154E-25
      0.3320E+00      0.3328E-13      0.2272E-25
      0.3355E+00      0.3328E-13      0.2272E-25
      0.3391E+00      0.3048E-13      0.2081E-25
      0.3426E+00      0.2338E-13      0.1596E-25
      0.3461E+00      0.9812E-14      0.6699E-26
      0.3496E+00      0.1328E-13      0.9069E-26
      0.3531E+00      0.5023E-13      0.3429E-25
      0.3566E+00      0.1071E-12      0.7309E-25
      0.3602E+00      0.1922E-12      0.1312E-24
      0.3637E+00      0.3170E-12      0.2164E-24
      0.3672E+00      0.4974E-12      0.3396E-24
      0.3707E+00      0.7543E-12      0.5149E-24
      0.3742E+00      0.1116E-11      0.7617E-24
      0.3777E+00      0.1619E-11      0.1105E-23
      0.3812E+00      0.2312E-11      0.1578E-23
      0.3848E+00      0.3257E-11      0.2224E-23
      0.3883E+00      0.4535E-11      0.3096E-23
      0.3918E+00      0.6247E-11      0.4264E-23
      0.3953E+00      0.8521E-11      0.5817E-23
      0.3988E+00      0.1152E-10      0.7863E-23
      0.4023E+00      0.1544E-10      0.1054E-22
      0.4059E+00      0.2054E-10      0.1402E-22
      0.4094E+00      0.2711E-10      0.1851E-22
      0.4129E+00      0.3555E-10      0.2427E-22
      0.4164E+00      0.4631E-10      0.3162E-22
      0.4199E+00      0.5997E-10      0.4094E-22
      0.4234E+00      0.7721E-10      0.5271E-22
      0.4270E+00      0.9889E-10      0.6751E-22
      0.4305E+00      0.1260E-09      0.8604E-22
      0.4340E+00      0.1599E-09      0.1092E-21
      0.4375E+00      0.2021E-09      0.1380E-21
      0.4410E+00      0.2544E-09      0.1737E-21
      0.4445E+00      0.3192E-09      0.2179E-21
      0.4480E+00      0.3992E-09      0.2725E-21
      0.4516E+00      0.4978E-09      0.3399E-21
      0.4551E+00      0.6191E-09      0.4227E-21
      0.4586E+00      0.7679E-09      0.5243E-21
      0.4621E+00      0.9499E-09      0.6485E-21
      0.4656E+00      0.1172E-08      0.7999E-21
      0.4691E+00      0.1441E-08      0.9839E-21
      0.4727E+00      0.1767E-08      0.1206E-20
      0.4762E+00      0.2159E-08      0.1474E-20
      0.4797E+00      0.2630E-08      0.1795E-20
      0.4832E+00      0.3191E-08      0.2178E-20
      0.4867E+00      0.3858E-08      0.2633E-20
      0.4902E+00      0.4646E-08      0.3172E-20
      0.4938E+00      0.5576E-08      0.3807E-20
      0.4973E+00      0.6668E-08      0.4552E-20
      0.5008E+00      0.7948E-08      0.5426E-20
      0.5043E+00      0.9442E-08      0.6446E-20
      0.5078E+00      0.1119E-07      0.7636E-20
      0.5113E+00      0.1321E-07      0.9020E-20
      0.5148E+00      0.1556E-07      0.1063E-19
      0.5184E+00      0.1829E-07      0.1248E-19
      0.5219E+00      0.2143E-07      0.1463E-19
      0.5254E+00      0.2503E-07      0.1709E-19
      0.5289E+00      0.2916E-07      0.1990E-19
      0.5324E+00      0.3384E-07      0.2310E-19
      0.5359E+00      0.3914E-07      0.2672E-19
      0.5395E+00      0.4506E-07      0.3076E-19
      0.5430E+00      0.5162E-07      0.3524E-19
      0.5465E+00      0.5882E-07      0.4015E-19
      0.5500E+00      0.6659E-07      0.4546E-19
      0.5535E+00      0.7483E-07      0.5108E-19
      0.5570E+00      0.8336E-07      0.5691E-19
      0.5605E+00      0.9191E-07      0.6275E-19
      0.5641E+00      0.1000E-06      0.6829E-19
      0.5676E+00      0.1071E-06      0.7310E-19
      0.5711E+00      0.1121E-06      0.7650E-19
      0.5746E+00      0.1135E-06      0.7746E-19
      0.5781E+00      0.1092E-06      0.7452E-19
      0.5816E+00      0.9595E-07      0.6550E-19
      0.5852E+00      0.6928E-07      0.4729E-19
      0.5887E+00      0.2264E-07      0.1545E-19
      0.5922E+00      0.5318E-07      0.3631E-19
      0.5957E+00      0.1711E-06      0.1168E-18
      0.5992E+00      0.3492E-06      0.2384E-18
      0.6027E+00      0.6127E-06      0.4183E-18
      0.6062E+00      0.9966E-06      0.6804E-18
      0.6098E+00      0.1550E-05      0.1058E-17
      0.6133E+00      0.2341E-05      0.1598E-17
      0.6168E+00      0.3464E-05      0.2365E-17
      0.6203E+00      0.5051E-05      0.3448E-17
      0.6238E+00      0.7286E-05      0.4974E-17
      0.6273E+00      0.1042E-04      0.7116E-17
      0.6309E+00      0.1481E-04      0.1011E-16
      0.6344E+00      0.2094E-04      0.1429E-16
      0.6379E+00      0.2946E-04      0.2011E-16
      0.6414E+00      0.4129E-04      0.2818E-16
      0.6449E+00      0.5765E-04      0.3936E-16
      0.6484E+00      0.8023E-04      0.5477E-16
      0.6520E+00      0.1113E-03      0.7599E-16
      0.6555E+00      0.1540E-03      0.1051E-15
      0.6590E+00      0.2125E-03      0.1451E-15
      0.6625E+00      0.2924E-03      0.1996E-15
      0.6660E+00      0.4016E-03      0.2742E-15
      0.6695E+00      0.5503E-03      0.3757E-15
      0.6730E+00      0.7524E-03      0.5136E-15
      0.6766E+00      0.1026E-02      0.7007E-15
      0.6801E+00      0.1397E-02      0.9536E-15
      0.6836E+00      0.1896E-02      0.1294E-14
      0.6871E+00      0.2566E-02      0.1752E-14
      0.6906E+00      0.3461E-02      0.2363E-14
      0.6941E+00      0.4651E-02      0.3175E-14
      0.6977E+00      0.6227E-02      0.4251E-14
      0.7012E+00      0.8303E-02      0.5669E-14
      0.7047E+00      0.1103E-01      0.7527E-14
      0.7082E+00      0.1458E-01      0.9950E-14
      0.7117E+00      0.1918E-01      0.1309E-13
      0.7152E+00      0.2512E-01      0.1715E-13
      0.7188E+00      0.3272E-01      0.2234E-13
      0.7223E+00      0.4239E-01      0.2894E-13
      0.7258E+00      0.5457E-01      0.3726E-13
      0.7293E+00      0.6980E-01      0.4765E-13
      0.7328E+00      0.8865E-01      0.6052E-13
      0.7363E+00      0.1117E+00      0.7626E-13
      0.7398E+00      0.1396E+00      0.9532E-13
      0.7434E+00      0.1730E+00      0.1181E-12
      0.7469E+00      0.2124E+00      0.1450E-12
      0.7504E+00      0.2582E+00      0.1763E-12
      0.7539E+00      0.3107E+00      0.2121E-12
      0.7574E+00      0.3698E+00      0.2524E-12
      0.7609E+00      0.4350E+00      0.2970E-12
      0.7645E+00      0.5054E+00      0.3450E-12
      0.7680E+00      0.5795E+00      0.3956E-12
      0.7715E+00      0.6554E+00      0.4474E-12
      0.7750E+00      0.7304E+00      0.4987E-12
      0.7785E+00      0.8019E+00      0.5474E-12
      0.7820E+00      0.8665E+00      0.5916E-12
      0.7855E+00      0.9213E+00      0.6289E-12
      0.7891E+00      0.9632E+00      0.6576E-12
      0.7926E+00      0.9900E+00      0.6759E-12
      0.7961E+00      0.1000E+01      0.6827E-12
      0.7996E+00      0.9924E+00      0.6775E-12
      0.8031E+00      0.9674E+00      0.6605E-12
      0.8066E+00      0.9264E+00      0.6325E-12
      0.8102E+00      0.8715E+00      0.5950E-12
      0.8137E+00      0.8056E+00      0.5500E-12
      0.8172E+00      0.7318E+00      0.4996E-12
      0.8207E+00      0.6535E+00      0.4462E-12
      0.8242E+00      0.5740E+00      0.3919E-12
      0.8277E+00      0.4960E+00      0.3386E-12
      0.8313E+00      0.4218E+00      0.2880E-12
      0.8348E+00      0.3532E+00      0.2411E-12
      0.8383E+00      0.2913E+00      0.1989E-12
      0.8418E+00      0.2367E+00      0.1616E-12
      0.8453E+00      0.1894E+00      0.1293E-12
      0.8488E+00      0.1495E+00      0.1020E-12
      0.8523E+00      0.1162E+00      0.7933E-13
      0.8559E+00      0.8902E-01      0.6077E-13
      0.8594E+00      0.6717E-01      0.4586E-13
      0.8629E+00      0.4990E-01      0.3406E-13
      0.8664E+00      0.3644E-01      0.2488E-13
      0.8699E+00      0.2613E-01      0.1784E-13
      0.8734E+00      0.1834E-01      0.1252E-13
      0.8770E+00      0.1256E-01      0.8576E-14
      0.8805E+00      0.8342E-02      0.5695E-14
      0.8840E+00      0.5318E-02      0.3630E-14
      0.8875E+00      0.3195E-02      0.2181E-14
      0.8910E+00      0.1740E-02      0.1188E-14
      0.8945E+00      0.7708E-03      0.5262E-15
      0.8980E+00      0.1487E-03      0.1015E-15
      0.9016E+00      0.2305E-03      0.1573E-15
      0.9051E+00      0.4437E-03      0.3029E-15
      0.9086E+00      0.5465E-03      0.3731E-15
      0.9121E+00      0.5785E-03      0.3950E-15
      0.9156E+00      0.5674E-03      0.3873E-15
      0.9191E+00      0.5317E-03      0.3630E-15
      0.9227E+00      0.4839E-03      0.3303E-15
      0.9262E+00      0.4318E-03      0.2948E-15
      0.9297E+00      0.3803E-03      0.2596E-15
      0.9332E+00      0.3318E-03      0.2265E-15
      0.9367E+00      0.2878E-03      0.1965E-15
      0.9402E+00      0.2486E-03      0.1697E-15
      0.9437E+00      0.2142E-03      0.1462E-15
      0.9473E+00      0.1842E-03      0.1258E-15
      0.9508E+00      0.1582E-03      0.1080E-15
      0.9543E+00      0.1357E-03      0.9263E-16
      0.9578E+00      0.1161E-03      0.7929E-16
      0.9613E+00      0.9916E-04      0.6770E-16
      0.9648E+00      0.8434E-04      0.5758E-16
      0.9684E+00      0.7135E-04      0.4871E-16
      0.9719E+00      0.5989E-04      0.4089E-16
      0.9754E+00      0.4972E-04      0.3395E-16
      0.9789E+00      0.4064E-04      0.2774E-16
      0.9824E+00      0.3245E-04      0.2216E-16
      0.9859E+00      0.2502E-04      0.1708E-16
      0.9895E+00      0.1819E-04      0.1242E-16
      0.9930E+00      0.1183E-04      0.8078E-17
      0.9965E+00      0.5819E-05      0.3973E-17
      0.1000E+01      0.0000E+00      0.0000E+00
